Model x (A),Model y (A),Evap x (A),Evap y (A),Time (sec),Theta (deg),Phi (deg),Model Resolution (A),Evaporation Rate (A/sec),Evaporation Time (sec),Grid space (A),Raycast Length (A)
0.0,0.0,0.0,0.0,0.0,0.0,0.0,10.0,1.0,50.0,2.5,5000.0
3.5035035035035,2.20113839262276,2.9314,14.0482,0.1,2.8255733788191,0.0,,,,,
7.00700700700701,4.40121020223817,5.8629,28.0964,0.2,5.63999551039369,0.0,,,,,
10.5105105105105,6.59914936266205,10.2506,37.9463,0.3,8.43215915635761,0.0,,,,,
14.014014014014,8.79389084110613,18.4437,47.097,0.4,11.1910449224185,0.0,,,,,
17.5175175175175,10.98437115425,23.1016,50.0,0.5,13.9057647468726,0.0,,,,,
21.021021021021,13.1695288835624,26.6135,52.1854,0.6,16.5656048708105,0.0,,,,,
24.5245245245245,15.3483051896216,30.1328,54.3693,0.7,19.1600681204283,0.0,,,,,
28.028028028028,17.5196443251869,33.6505,56.5409,0.8,21.6789153345772,0.0,,,,,
31.5315315315315,19.6824941467705,37.1714,58.7008,0.9,24.1122057740548,0.0,,,,,
35.035035035035,21.8358066244645,40.6919,60.8524,1.0,26.450336353161305,0.0,,,,,
38.5385385385385,23.9785383497736,44.2144,62.9951,1.1,28.684079538691005,0.0,,,,,
42.042042042042,26.1096510412088,47.7394,65.1309,1.2,30.804619766790996,0.0,,,,,
45.5455455455456,28.2281120473972,51.2622,67.2453,1.3,32.8035882339635,0.0,,,,,
49.0490490490491,30.3328948474627,54.7904,69.3495,1.4,34.6730959249105,0.0,,,,,
52.5525525525526,32.4229795484371,58.3204,71.4396,1.5,36.4057647468726,0.0,,,,,
56.0560560560561,34.497353379459,61.8459,73.5072,1.6,37.994756647590705,0.0,,,,,
59.5595595595596,36.5550111825219,65.3753,75.5683,1.7,39.4338006019739,0.0,,,,,
63.0630630630631,38.5949558995329,68.9038,77.6,1.8,40.7172173609709,0.0,,,,,
66.5665665665666,40.6161990554472,72.4329,79.6183,1.9,41.8399418649713,0.0,,,,,
70.0700700700701,42.6177612372435,75.9658,81.6162,2.0,42.7975432332819,0.0,,,,,
73.5735735735736,44.5986725685076,79.4967,83.5903,2.1,43.5862422507884,0.0,,,,,
77.0770770770771,46.5579731793957,83.0293,85.5414,2.2,44.202926282791,0.0,,,,,
80.5805805805806,48.4947136717488,86.5587,87.4705,2.3,44.6451615591515,0.0,,,,,
84.0840840840841,50.4079555791325,90.0881,89.3749,2.4,44.9112027792722,0.0,,,,,
87.5875875875876,52.2967718215802,93.6191,91.2485,2.5,45.0,0.0,,,,,
91.0910910910911,54.160247154819,97.1459,93.1019,2.6,44.9112027792722,0.0,,,,,
94.5945945945946,55.9974786137595,100.6762,94.9274,2.7,44.6451615591515,0.0,,,,,
98.0980980980981,57.8075759500371,104.2056,96.7209,2.8,44.202926282791,0.0,,,,,
101.601601601602,59.5896620633898,107.7313,98.4846,2.9,43.5862422507884,0.0,,,,,
105.105105105105,61.3428734266662,111.2565,100.2189,3.0,42.7975432332819,0.0,,,,,
108.608608608609,63.0663605042557,114.7805,101.9206,3.1,41.8399418649713,0.0,,,,,
112.112112112112,64.7592881637394,118.3013,103.5884,3.2,40.7172173609709,0.0,,,,,
115.615615615616,66.4208360805614,121.8219,105.2259,3.3,39.4338006019738,0.0,,,,,
119.119119119119,68.0501991355253,125.3415,106.8296,3.4,37.994756647590705,0.0,,,,,
122.622622622623,69.6465878049222,128.8577,108.4018,3.5,36.4057647468726,0.0,,,,,
126.126126126126,71.2092285431025,132.3643,109.9281,3.6,34.6730959249105,0.0,,,,,
129.62962962963,72.7373641573049,135.872,111.4251,3.7,32.8035882339635,0.0,,,,,
133.133133133133,74.2302541745609,139.3776,112.883,3.8,30.804619766790996,0.0,,,,,
136.636636636637,75.6871752004992,142.8768,114.3015,3.9,28.684079538691005,0.0,,,,,
140.14014014014,77.1074212698725,146.3771,115.6794,4.0,26.450336353161305,0.0,,,,,
143.643643643644,78.4903041886405,149.8664,117.0199,4.1,24.1122057740548,0.0,,,,,
147.147147147147,79.8351538674406,153.3561,118.3222,4.2,21.6789153345772,0.0,,,,,
150.650650650651,81.1413186462866,156.8399,119.5825,4.3,19.1600681204283,0.0,,,,,
154.154154154154,82.4081656103364,160.3181,120.7999,4.4,16.5656048708105,0.0,,,,,
157.657657657658,83.6350808965776,163.7905,121.981,4.5,13.9057647468726,0.0,,,,,
161.161161161161,84.8214699912802,167.2583,123.1096,4.6,11.1910449224184,0.0,,,,,
164.664664664665,85.9667580180745,170.7199,124.2036,4.7,8.4321591563576,0.0,,,,,
168.168168168168,87.0703900165128,174.1777,125.2468,4.8,5.63999551039368,0.0,,,,,
171.671671671672,88.1318312109807,177.6302,126.2531,4.9,2.82557337881909,0.0,,,,,
175.175175175175,89.1505672698284,181.0765,127.2108,5.0,0.0,0.0,,,,,
178.678678678679,90.1261045545945,184.5116,128.127,5.1,-2.82557337881914,0.0,,,,,
182.182182182182,91.0579703592036,187.9459,128.9937,5.2,-5.6399955103937,0.0,,,,,
185.685685685686,91.9457131390205,191.3763,129.8218,5.3,-8.43215915635762,0.0,,,,,
189.189189189189,92.7889027296509,194.7966,130.6017,5.4,-11.1910449224185,0.0,,,,,
192.692692692693,93.5871305553812,198.2084,131.3347,5.5,-13.9057647468726,0.0,,,,,
196.196196196196,94.3400098271581,201.619,132.0206,5.6,-16.5656048708105,0.0,,,,,
199.6996996997,95.0471757300112,205.023,132.6605,5.7,-19.1600681204283,0.0,,,,,
203.203203203203,95.7082855998271,208.4218,133.256,5.8,-21.6789153345772,0.0,,,,,
206.706706706707,96.3230190893913,211.8199,133.8083,5.9,-24.1122057740549,0.0,,,,,
210.21021021021,96.891078323615,215.2073,134.3133,6.0,-26.450336353161305,0.0,,,,,
213.713713713714,97.4121880438736,218.5934,134.7722,6.1,-28.6840795386911,0.0,,,,,
217.217217217217,97.8860957413862,221.9671,135.1822,6.2,-30.804619766790996,0.0,,,,,
220.720720720721,98.3125717795704,225.3435,135.5446,6.3,-32.8035882339635,0.0,,,,,
224.224224224224,98.691409505316,228.7197,135.8651,6.4,-34.6730959249105,0.0,,,,,
227.727727727728,99.0224253491199,232.0874,136.1402,6.5,-36.4057647468726,0.0,,,,,
231.231231231231,99.3054589140368,235.4537,136.3656,6.6,-37.994756647590705,0.0,,,,,
234.734734734735,99.5403730534013,238.8175,136.5457,6.7,-39.4338006019739,0.0,,,,,
238.238238238238,99.7270539372833,242.1784,136.6797,6.8,-40.7172173609709,0.0,,,,,
241.741741741742,99.8654111076456,245.5336,136.7645,6.9,-41.8399418649713,0.0,,,,,
245.245245245245,99.9553775221764,248.8949,136.8041,7.0,-42.7975432332819,0.0,,,,,
248.748748748749,99.9969095867747,252.2554,136.7991,7.1,-43.5862422507884,0.0,,,,,
252.252252252252,99.9899871766749,255.6138,136.7455,7.2,-44.202926282791,0.0,,,,,
255.755755755756,99.9346136461981,258.9739,136.6451,7.3,-44.6451615591515,0.0,,,,,
259.259259259259,99.8308158271268,262.3345,136.4996,7.4,-44.9112027792722,0.0,,,,,
262.762762762763,99.6786440157034,265.7019,136.3044,7.5,-45.0,0.0,,,,,
266.266266266266,99.4781719482585,269.0688,136.0655,7.6,-44.9112027792722,0.0,,,,,
269.76976976977,99.2294967654814,272.44,135.7829,7.7,-44.6451615591515,0.0,,,,,
273.273273273273,98.9327389653494,275.8077,135.4477,7.8,-44.202926282791,0.0,,,,,
276.776776776777,98.5880423447396,279.1839,135.0708,7.9,-43.5862422507884,0.0,,,,,
280.28028028028,98.1955739297507,282.5609,134.646,8.0,-42.7975432332819,0.0,,,,,
283.783783783784,97.7555238947686,285.9484,134.1717,8.1,-41.8399418649713,0.0,,,,,
287.287287287287,97.268105470316,289.3389,133.6593,8.2,-40.7172173609709,0.0,,,,,
290.790790790791,96.733554839729,292.7287,133.095,8.3,-39.4338006019738,0.0,,,,,
294.294294294294,96.1521310247126,296.1296,132.487,8.4,-37.994756647590705,0.0,,,,,
297.797797797798,95.5241157598287,299.534,131.8321,8.5,-36.4057647468726,0.0,,,,,
301.301301301301,94.8498133559795,302.9429,131.1303,8.6,-34.6730959249105,0.0,,,,,
304.804804804805,94.1295505529503,306.3592,130.383,8.7,-32.8035882339635,0.0,,,,,
308.308308308308,93.3636763610846,309.7788,129.59,8.8,-30.804619766790996,0.0,,,,,
311.811811811812,92.5525618921678,313.2089,128.7529,8.9,-28.684079538691005,0.0,,,,,
315.315315315315,91.6966001796013,316.6421,127.8733,9.0,-26.450336353161305,0.0,,,,,
318.818818818819,90.7962059879546,320.083,126.9459,9.1,-24.1122057740549,0.0,,,,,
322.322322322322,89.8518156119867,323.528,125.9763,9.2,-21.6789153345771,0.0,,,,,
325.825825825826,88.8638866652356,326.9751,124.9592,9.3,-19.1600681204282,0.0,,,,,
329.329329329329,87.8328978582769,330.4337,123.8978,9.4,-16.5656048708105,0.0,,,,,
332.832832832833,86.7593487667601,333.8993,122.7992,9.5,-13.9057647468726,0.0,,,,,
336.336336336336,85.6437595893346,337.3682,121.6499,9.6,-11.1910449224184,0.0,,,,,
339.83983983984,84.4866708955818,340.8363,120.4647,9.7,-8.43215915635755,0.0,,,,,
343.343343343343,83.2886433640773,344.3157,119.2324,9.8,-5.63999551039367,0.0,,,,,
346.846846846847,82.0502575107088,347.8003,117.9605,9.9,-2.82557337881907,0.0,,,,,
350.35035035035,80.7721134073807,351.2853,116.653,10.0,0.0,0.0,,,,,
353.853853853854,79.4548303912444,354.7808,115.3004,,,,,,,,
357.357357357357,78.0990467645917,358.2741,113.9066,,,,,,,,
360.860860860861,76.7054194855598,361.7744,112.4812,,,,,,,,
364.364364364364,75.2746238497955,365.282,111.0141,,,,,,,,
367.867867867868,73.8073531632339,368.7903,109.5067,,,,,,,,
371.371371371371,72.3043184061509,372.298,107.967,,,,,,,,
374.874874874875,70.7662478886504,375.811,106.3904,,,,,,,,
378.378378378378,69.1938868977546,379.3282,104.7759,,,,,,,,
381.881881881882,67.5879973362679,382.8469,103.1306,,,,,,,,
385.385385385385,65.9493573535896,386.3652,101.4533,,,,,,,,
388.888888888889,64.2787609686539,389.8888,99.7437,,,,,,,,
392.392392392392,62.5770176851806,393.4146,97.9991,,,,,,,,
395.895895895896,60.8449520994217,396.941,96.2246,,,,,,,,
399.399399399399,59.0834035005958,400.4627,94.4235,,,,,,,,
402.902902902903,57.293225464202,403.9961,92.5968,,,,,,,,
406.406406406406,55.4752854384117,407.5231,90.7345,,,,,,,,
409.90990990991,53.6304643237382,411.0505,88.8533,,,,,,,,
413.413413413413,51.7596560461878,414.5814,86.9392,,,,,,,,
416.916916916917,49.8637671240991,418.1095,85.0054,,,,,,,,
420.42042042042,47.943716228881,421.6408,83.0505,,,,,,,,
423.923923923924,46.0004337398611,425.1706,81.0693,,,,,,,,
427.427427427427,44.0348612934619,428.7031,79.0689,,,,,,,,
430.930930930931,42.0479513269214,432.2298,77.0462,,,,,,,,
434.434434434434,40.0406666167804,435.7639,75.0028,,,,,,,,
437.937937937938,38.0139798123597,439.2858,72.945,,,,,,,,
441.441441441441,35.9688729644536,442.8114,70.8722,,,,,,,,
444.944944944945,33.9063370494675,446.3451,68.7784,,,,,,,,
448.448448448448,31.8273714892308,449.8735,66.6643,,,,,,,,
451.951951951952,29.7329836667172,453.3943,64.5441,,,,,,,,
455.455455455456,27.6241884379074,456.911,62.4133,,,,,,,,
458.958958958959,25.502007640031,460.4299,60.2697,,,,,,,,
462.462462462463,23.3674695964252,463.9539,58.1149,,,,,,,,
465.965965965966,21.2216086182508,467.4746,55.9442,,,,,,,,
469.46946946947,19.0654645033065,470.9885,53.7767,,,,,,,,
472.972972972973,16.9000820321849,474.5094,51.5911,,,,,,,,
476.476476476477,14.7265104620141,478.0229,49.403,,,,,,,,
479.97997997998,12.5458030180296,481.538,47.2085,,,,,,,,
483.483483483484,10.3590163832239,485.0417,45.012,,,,,,,,
486.986986986987,8.16721018632063,488.5518,42.8197,,,,,,,,
490.490490490491,5.97144648832095,492.0494,40.6203,,,,,,,,
493.993993993994,3.77278926787171,495.5706,38.4091,,,,,,,,
497.497497497498,1.57230390570408,499.0736,36.2075,,,,,,,,
501.001001001001,-0.628943331606759,502.573,34.0093,,,,,,,,
504.504504504505,-2.8298858083118,506.0736,31.8134,,,,,,,,
508.008008008008,-5.02945703633662,509.5724,29.6166,,,,,,,,
511.511511511512,-7.22659119205871,513.068,27.4307,,,,,,,,
515.015015015015,-9.42022363276265,516.5676,25.2451,,,,,,,,
518.518518518519,-11.609291412523,520.0575,23.0635,,,,,,,,
522.022022022022,-13.7927337972654,523.5454,20.8999,,,,,,,,
525.525525525526,-15.969492778755,527.0399,18.7377,,,,,,,,
529.029029029029,-18.1385135872651,530.5274,16.5863,,,,,,,,
532.532532532533,-20.2987452026761,534.0132,14.446,,,,,,,,
536.036036036036,-22.4491408637573,537.4978,12.3209,,,,,,,,
539.53953953954,-24.588658575385,540.9859,10.202,,,,,,,,
543.043043043043,-26.7162616134522,544.473,8.101,,,,,,,,
546.546546546547,-28.8309190272222,547.9551,6.008,,,,,,,,
550.05005005005,-30.9316061388869,551.4286,3.9398,,,,,,,,
553.553553553554,-33.0173050400837,554.9151,1.8807,,,,,,,,
557.057057057057,-35.087005085133,558.3906,-0.1576,,,,,,,,
560.560560560561,-37.1397033807568,561.8686,-2.1735,,,,,,,,
564.064064064064,-39.1744052720397,565.3487,-4.1771,,,,,,,,
567.567567567568,-41.1901248243993,568.8275,-6.1571,,,,,,,,
571.071071071071,-43.1858853013297,572.3063,-8.1195,,,,,,,,
574.574574574575,-45.1607196376896,575.7803,-10.0573,,,,,,,,
578.078078078078,-47.1136709083018,579.2552,-11.9705,,,,,,,,
581.581581581582,-49.0437927916421,582.7397,-13.8638,,,,,,,,
585.085085085085,-50.9501500283873,586.2098,-15.7314,,,,,,,,
588.588588588589,-52.8318188746051,589.6892,-17.5709,,,,,,,,
592.092092092092,-54.6878875493628,593.1673,-19.3926,,,,,,,,
595.595595595596,-56.5174566765393,596.6474,-21.1772,,,,,,,,
599.099099099099,-58.3196397206274,600.1322,-22.9423,,,,,,,,
602.602602602603,-60.0935634163123,603.6084,-24.6738,,,,,,,,
606.106106106106,-61.8383681916216,607.0952,-26.3792,,,,,,,,
609.60960960961,-63.5532085844384,610.5806,-28.0565,,,,,,,,
613.113113113113,-65.2372536521791,614.0667,-29.699,,,,,,,,
616.616616616617,-66.8896873744339,617.5613,-31.3144,,,,,,,,
620.12012012012,-68.5097090483781,621.052,-32.8976,,,,,,,,
623.623623623624,-70.0965336767598,624.544,-34.4491,,,,,,,,
627.127127127127,-71.6493923482783,628.0448,-35.9617,,,,,,,,
630.630630630631,-73.1675326101679,631.5473,-37.4451,,,,,,,,
634.134134134134,-74.6502188328052,635.0512,-38.8915,,,,,,,,
637.637637637638,-76.0967325661668,638.5589,-40.307,,,,,,,,
641.141141141141,-77.5063728879602,642.075,-41.6775,,,,,,,,
644.644644644645,-78.8784567432632,645.5901,-43.0191,,,,,,,,
648.148148148148,-80.2123192755044,649.1109,-44.3192,,,,,,,,
651.651651651652,-81.5073141486262,652.6394,-45.5837,,,,,,,,
655.155155155155,-82.7628138602731,656.1681,-46.8072,,,,,,,,
658.658658658659,-83.978210045854,659.7078,-47.9959,,,,,,,,
662.162162162162,-85.1529137733312,663.2516,-49.1415,,,,,,,,
665.665665665666,-86.2863558285931,666.7973,-50.2456,,,,,,,,
669.169169169169,-87.3779869912729,670.3511,-51.31,,,,,,,,
672.672672672673,-88.4272783008778,673.9087,-52.3361,,,,,,,,
676.176176176176,-89.4337213131028,677.4766,-53.3138,,,,,,,,
679.67967967968,-90.3968283462016,681.0449,-54.2526,,,,,,,,
683.183183183183,-91.3161327172983,684.626,-55.1462,,,,,,,,
686.686686686687,-92.1911889685225,688.2046,-55.9922,,,,,,,,
690.19019019019,-93.0215730828604,691.7934,-56.7979,,,,,,,,
693.693693693694,-93.8068826896166,695.3902,-57.557,,,,,,,,
697.197197197197,-94.5467372593863,698.9875,-58.2716,,,,,,,,
700.700700700701,-95.2407782884452,702.5966,-58.9356,,,,,,,,
704.204204204204,-95.888669472465,706.2083,-59.5527,,,,,,,,
707.707707707708,-96.4900968694739,709.8213,-60.126,,,,,,,,
711.211211211211,-97.0447690519797,713.4382,-60.6562,,,,,,,,
714.714714714715,-97.5524172481839,717.0688,-61.1324,,,,,,,,
718.218218218218,-98.0127954722177,720.7029,-61.5594,,,,,,,,
721.721721721722,-98.4256806433369,724.3325,-61.9325,,,,,,,,
725.225225225225,-98.7908726940178,727.9692,-62.2677,,,,,,,,
728.728728728729,-99.108194666902,731.6146,-62.546,,,,,,,,
732.232232232232,-99.3774928005424,735.2493,-62.7743,,,,,,,,
735.735735735736,-99.5986366039104,738.8953,-62.9577,,,,,,,,
739.239239239239,-99.7715189196262,742.5457,-63.0821,,,,,,,,
742.742742742743,-99.8960559758828,746.188,-63.1611,,,,,,,,
746.246246246246,-99.9721874270389,749.8345,-63.1927,,,,,,,,
749.74974974975,-99.9998763828597,753.4818,-63.168,,,,,,,,
753.253253253253,-99.9791094263926,757.1258,-63.096,,,,,,,,
756.756756756757,-99.9098966204681,760.7758,-62.978,,,,,,,,
760.26026026026,-99.7922715028243,764.4196,-62.8027,,,,,,,,
763.763763763764,-99.6262910698554,768.0552,-62.5823,,,,,,,,
767.267267267267,-99.4120357489939,771.7027,-62.3131,,,,,,,,
770.770770770771,-99.1496093597385,775.3404,-61.9836,,,,,,,,
774.274274274274,-98.8391390633473,778.9709,-61.6168,,,,,,,,
777.777777777778,-98.4807753012208,782.6003,-61.1943,,,,,,,,
781.281281281281,-98.074691722004,786.2294,-60.7295,,,,,,,,
784.784784784785,-97.6210850974429,789.8504,-60.2028,,,,,,,,
788.288288288288,-97.1201752270376,793.4592,-59.6417,,,,,,,,
791.791791791792,-96.5722048315354,797.0719,-59.0311,,,,,,,,
795.295295295295,-95.9774394353189,800.6761,-58.3692,,,,,,,,
798.798798798799,-95.3361672377429,804.2763,-57.662,,,,,,,,
802.302302302302,-94.6486989734852,807.8726,-56.9127,,,,,,,,
805.805805805806,-93.9153677619768,811.4639,-56.1131,,,,,,,,
809.309309309309,-93.1365289459854,815.0429,-55.269,,,,,,,,
812.812812812813,-92.3125599194313,818.6169,-54.3874,,,,,,,,
816.316316316316,-91.4438599445166,822.1913,-53.453,,,,,,,,
819.81981981982,-90.5308499582597,825.752,-52.4791,,,,,,,,
823.323323323323,-89.5739723685255,829.3136,-51.4657,,,,,,,,
826.826826826827,-88.5736908396529,832.8674,-50.4024,,,,,,,,
830.33033033033,-87.5304900677813,836.4092,-49.3035,,,,,,,,
833.833833833834,-86.4448755459865,839.948,-48.1689,,,,,,,,
837.337337337337,-85.3173733193393,843.4897,-46.988,,,,,,,,
840.840840840841,-84.148529730005,847.0193,-45.7678,,,,,,,,
844.344344344344,-82.9389111525083,850.5444,-44.5108,,,,,,,,
847.847847847848,-81.6891037192905,854.0659,-43.2169,,,,,,,,
851.351351351351,-80.399713036694,857.5839,-41.8838,,,,,,,,
854.854854854855,-79.0713638915093,861.0935,-40.51,,,,,,,,
858.358358358358,-77.7046999482288,864.6042,-39.1025,,,,,,,,
861.861861861862,-76.3003834371527,868.105,-37.6656,,,,,,,,
865.365365365365,-74.8590948334991,871.6081,-36.1896,,,,,,,,
868.868868868869,-73.3815325276728,875.1035,-34.6775,,,,,,,,
872.372372372372,-71.8684124868538,878.5959,-33.1349,,,,,,,,
875.875875875876,-70.3204679080684,882.0892,-31.5567,,,,,,,,
879.379379379379,-68.738448862911,885.5812,-29.9513,,,,,,,,
882.882882882883,-67.1231219340903,889.062,-28.3105,,,,,,,,
886.386386386386,-65.4752698439735,892.5498,-26.6392,,,,,,,,
889.88988988989,-63.7956910753112,896.0322,-24.9414,,,,,,,,
893.393393393393,-62.0851994843243,899.5117,-23.2095,,,,,,,,
896.896896896897,-60.3446239063426,902.9938,-21.4521,,,,,,,,
900.4004004004,-58.5748077541839,906.4695,-19.6671,,,,,,,,
903.903903903904,-56.7766086094708,909.9483,-17.8515,,,,,,,,
907.407407407407,-54.9508978070806,913.4245,-16.0125,,,,,,,,
910.910910910911,-53.098560012932,916.9023,-14.1524,,,,,,,,
914.414414414414,-51.2204927953114,920.3758,-12.2652,,,,,,,,
917.917917917918,-49.3176061899474,923.8516,-10.352,,,,,,,,
921.421421421421,-47.3908222590443,927.3297,-8.4155,,,,,,,,
924.924924924925,-45.4410746444877,930.8024,-6.4613,,,,,,,,
928.428428428428,-43.4693081154396,934.2797,-4.4841,,,,,,,,
931.931931931932,-41.4764781105407,937.7567,-2.4875,,,,,,,,
935.435435435435,-39.4635502749441,941.233,-0.4686,,,,,,,,
938.938938938939,-37.4314999924019,944.7143,1.5642,,,,,,,,
942.442442442442,-35.3813119126338,948.1906,3.6196,,,,,,,,
945.945945945946,-33.3139794742058,951.672,5.6868,,,,,,,,
949.44944944945,-31.2305044231489,955.1561,7.7729,,,,,,,,
952.952952952953,-29.1318963275547,958.6357,9.873,,,,,,,,
956.456456456457,-27.0191720883782,962.1228,11.9899,,,,,,,,
959.95995995996,-24.8933554466891,965.6064,14.1137,,,,,,,,
963.463463463464,-22.7554764876082,969.0914,16.252,,,,,,,,
966.966966966967,-20.6065711411692,972.5809,18.4034,,,,,,,,
970.470470470471,-18.4476806803492,976.0725,20.5616,,,,,,,,
973.973973973974,-16.2798512165094,979.5616,22.7255,,,,,,,,
977.477477477478,-14.1041331924919,983.054,24.9068,,,,,,,,
980.980980980981,-11.9215808736172,986.5486,27.0899,,,,,,,,
984.484484484485,-9.73325183683021,990.047,29.2742,,,,,,,,
987.987987987988,-7.54020645824014,993.5429,31.4711,,,,,,,,
991.491491491492,-5.34350739930576,997.0441,33.6673,,,,,,,,
994.994994994995,-3.14421909191202,1000.5431,35.864,,,,,,,,
998.498498498499,-0.943407222589672,1004.0466,38.0661,,,,,,,,
1002.002002002,1.25786178387407,1007.5529,40.2671,,,,,,,,
1005.50550550551,3.45852128118175,1011.0599,42.4745,,,,,,,,
1009.00900900901,5.65750491837922,1014.5697,44.6695,,,,,,,,
1012.51251251251,7.853747156567,1018.0792,46.869,,,,,,,,
1016.01601601602,10.0461837852168,1021.5936,49.0604,,,,,,,,
1019.51951951952,12.2337524378458,1025.1092,51.2528,,,,,,,,
1023.02302302302,14.4153931067959,1028.625,53.4316,,,,,,,,
1026.52652652653,16.5900486568714,1032.1447,55.6088,,,,,,,,
1030.03003003003,18.7566653375838,1035.6624,57.774,,,,,,,,
